Step	Total Kinetic Energy (kJ/mol)	Total Potential Energy (kJ/mol)	Total Energy (kJ/mol)
    0             0.0047181094                  0.4116705159             0.4163886253
    1                0.0410739                      0.374859                 0.415933
    2                 0.106682                      0.308431                 0.415113
    3                 0.188735                      0.225353                 0.414088
    4                 0.271245                      0.141817                 0.413062
    5                 0.338176                      0.074057                 0.412233
    6                 0.376586                     0.0351781                 0.411765
    7                 0.379132                     0.0326128                 0.411745
    8                 0.345472                     0.0667037                 0.412175
    9                 0.282293                      0.130677                  0.41297
   10                 0.201974                      0.211999                 0.413973
   11                  0.12016                      0.294831                 0.414991
   12                0.0527209                      0.363105                 0.415826
   13                0.0126991                      0.403621                  0.41632
   14               0.00781401                      0.408566                  0.41638
   15                0.0390006                      0.376995                 0.415995
   16                 0.100251                      0.314989                 0.415241
   17                 0.179787                      0.234475                 0.414262
   18                 0.262328                       0.15092                 0.413248
   19                 0.332039                     0.0803539                 0.412393
   20                 0.375586                     0.0362772                 0.411864
   21                 0.384713                     0.0270496                 0.411762
   22                 0.357842                     0.0542668                 0.412109
   23                 0.300391                      0.112446                 0.412836
   24                 0.223715                      0.190088                 0.413803
   25                 0.142901                      0.271919                  0.41482
   26                0.0738176                      0.341871                 0.415689
   27                0.0300158                      0.386223                 0.416239
   28                0.0200841                       0.39628                 0.416364
   29                0.0459804                      0.370061                 0.416041
   30                 0.102669                      0.312666                 0.415335
   31                 0.179134                      0.235251                 0.414386
   32                 0.260558                      0.152823                  0.41338
   33                 0.331233                      0.081282                 0.412515
   34                 0.377637                     0.0343217                 0.411958
   35                 0.391043                     0.0207726                 0.411816
   36                  0.36919                     0.0429226                 0.412113
   37                 0.316662                      0.096125                 0.412787
   38                  0.24395                      0.169756                 0.413707
   39                 0.165369                      0.249322                 0.414691
   40                0.0962669                      0.319284                 0.415551
   41                0.0500562                      0.366066                 0.416122
   42                0.0356532                      0.380644                 0.416297
   43                0.0557961                      0.360249                 0.416045
   44                  0.10656                      0.308857                 0.415418
   45                 0.178149                      0.236387                 0.414536
   46                 0.256801                       0.15677                 0.413571
   47                 0.327447                     0.0852611                 0.412708
   48                 0.376607                     0.0355064                 0.412113
   49                 0.394975                     0.0169242                 0.411899
   50                 0.379207                     0.0329012                 0.412108
   51                 0.332548                       0.08015                 0.412698
   52                 0.264202                      0.149353                 0.413555
   53                 0.187543                      0.226971                 0.414514
   54                 0.117519                      0.297869                 0.415387
   55                0.0677592                      0.348248                 0.416007
   56                0.0479341                      0.368319                 0.416253
   57                0.0618859                      0.354193                 0.416079
   58                 0.106897                      0.308623                 0.415519
   59                 0.174231                      0.240453                 0.414684
   60                 0.250845                       0.16289                 0.413735
   61                 0.321929                     0.0909294                 0.412858
   62                 0.373776                     0.0384461                 0.412222
   63                 0.396435                     0.0155141                 0.411949
   64                 0.385615                     0.0264749                  0.41209
   65                 0.343492                     0.0691248                 0.412617
   66                 0.278258                      0.135169                 0.413426
   67                 0.202517                      0.211844                 0.414362
   68                 0.130849                      0.284394                 0.415243
   69                 0.076997                      0.338905                 0.415902
   70                0.0512454                      0.364968                 0.416214
   71                 0.058464                      0.357656                  0.41612
   72                 0.097198                      0.318443                 0.415641
   73                 0.159965                      0.254903                 0.414868
   74                 0.234695                      0.179255                  0.41395
   75                 0.307039                      0.106021                  0.41306
   76                 0.363107                      0.049263                  0.41237
   77                 0.392106                     0.0199033                  0.41201
   78                 0.388401                     0.0236475                 0.412048
   79                 0.352582                      0.059897                 0.412479
   80                 0.291359                       0.12186                 0.413219
   81                 0.216289                      0.197841                  0.41413
   82                 0.141577                       0.27346                 0.415037
   83                0.0813785                      0.334389                 0.415767
   84                0.0471019                      0.369081                 0.416183
   85                0.0452351                      0.370969                 0.416204
   86                0.0761052                      0.339721                 0.415826
   87                  0.13381                      0.281311                 0.415121
   88                 0.207332                       0.20689                 0.414222
   89                 0.282631                      0.130669                   0.4133
   90                 0.345301                     0.0672289                  0.41253
   91                 0.383309                     0.0287489                 0.412058
   92                 0.389274                     0.0227002                 0.411974
   93                 0.361865                     0.0504284                 0.412293
   94                 0.306059                      0.106898                 0.412957
   95                 0.232198                       0.18164                 0.413838
   96                 0.154041                      0.260732                 0.414772
   97                0.0861705                      0.329413                 0.415583
   98                0.0412509                      0.374868                 0.416119
   99                0.0276473                      0.388632                 0.416279
  100                0.0478563                      0.368177                 0.416033
  101                0.0980372                       0.31739                 0.415428
  102                  0.16873                      0.245846                 0.414576
  103                 0.246625                      0.167012                 0.413637
  104                 0.317047                     0.0957396                 0.412786
  105                 0.366701                      0.045482                 0.412183
  106                 0.386154                     0.0257858                  0.41194
  107                 0.371599                     0.0405036                 0.412103
  108                 0.325569                     0.0870718                 0.412641
  109                 0.256473                      0.156982                 0.413456
  110                  0.17703                      0.237364                 0.414395
  111                 0.101907                      0.313376                 0.415284
  112                0.0449871                       0.37097                 0.415957
  113                0.0167892                        0.3995                 0.416289
  114                0.0225091                       0.39371                 0.416219
  115                0.0610524                      0.354707                  0.41576
  116                 0.125236                       0.28976                 0.414996
  117                 0.203121                      0.210948                 0.414069
  118                 0.280227                      0.132925                 0.413152
  119                 0.342218                     0.0701963                 0.412414
  120                 0.377559                     0.0344334                 0.411993
  121                 0.379652                     0.0323128                 0.411965
  122                 0.348054                     0.0642821                 0.412336
  123                 0.288556                      0.124481                 0.413037
  124                 0.212109                       0.20183                 0.413939
  125                 0.132793                      0.282081                 0.414874
  126                0.0652182                      0.350451                  0.41567
  127                 0.021825                      0.394355                  0.41618
  128                0.0105918                      0.405719                 0.416311
  129                 0.033569                       0.38247                 0.416039
  130                0.0865074                      0.328908                 0.415415
  131                 0.159649                      0.254905                 0.414554
  132                 0.239532                      0.174083                 0.413615
  133                 0.311471                      0.101299                 0.412771
  134                 0.362271                     0.0499062                 0.412177
  135                 0.382644                     0.0292989                 0.411943
  136                 0.368921                     0.0431892                 0.412111
  137                 0.323716                     0.0889325                 0.412649
  138                 0.255433                      0.158025                 0.413458
  139                 0.176712                      0.237677                 0.414389
  140                 0.102096                      0.313174                  0.41527
  141                0.0453558                      0.370584                  0.41594
  142                0.0169578                      0.399317                 0.416275
  143                0.0221496                      0.394066                 0.416216
  144                0.0600056                      0.355768                 0.415773
  145                 0.123609                      0.291421                  0.41503
  146                 0.201333                      0.212788                 0.414122
  147                 0.278985                      0.134231                 0.413217
  148                 0.342414                     0.0700666                 0.412481
  149                 0.380106                     0.0319421                 0.412049
  150                 0.385292                     0.0267065                 0.411998
  151                 0.357177                     0.0551622                 0.412339
  152                 0.301078                       0.11193                 0.413008
  153                 0.227437                      0.186444                 0.413881
  154                   0.1499                      0.264899                 0.414799
  155                0.0828104                      0.332783                 0.415593
  156                0.0385825                      0.377536                 0.416118
  157                  0.02543                      0.390849                 0.416279
  158                0.0458668                       0.37018                 0.416046
  159                0.0962531                       0.31921                 0.415463
  160                 0.167468                      0.247168                 0.414636
  161                 0.246585                      0.167133                 0.413718
  162                 0.319239                     0.0936369                 0.412875
  163                 0.372259                     0.0400051                 0.412264
  164                 0.396076                     0.0159185                 0.411995
  165                 0.386471                     0.0256456                 0.412117
  166                  0.34534                     0.0672672                 0.412607
  167                 0.280343                      0.133033                 0.413376
  168                 0.203499                      0.210785                 0.414284
  169                  0.12898                      0.286182                 0.415163
  170                0.0705275                      0.345326                 0.415853
  171                0.0389364                      0.377293                  0.41623
  172                 0.040092                      0.376132                 0.416224
  173                   0.0739                      0.341937                 0.415837
  174                  0.13431                       0.28083                  0.41514
  175                 0.210423                      0.203837                  0.41426
  176                 0.288485                      0.124874                 0.413358
  177                 0.354388                     0.0582105                 0.412599
  178                 0.396243                     0.0158755                 0.412119
  179                 0.406538                     0.0054684                 0.412006
  180                 0.383496                     0.0287852                 0.412281
  181                 0.331394                     0.0814981                 0.412892
  182                 0.259781                      0.153949                 0.413729
  183                 0.181732                      0.232907                  0.41464
  184                 0.111481                      0.303978                 0.415459
  185                0.0618282                       0.35421                 0.416038
  186                0.0418286                      0.374444                 0.416272
  187                0.0551517                      0.360969                 0.416121
  188                0.0994234                      0.316187                  0.41561
  189                 0.166663                      0.248171                 0.414834
  190                 0.244735                      0.169199                 0.413933
  191                 0.319548                     0.0935227                 0.413071
  192                 0.377613                     0.0347901                 0.412403
  193                 0.408478                    0.00357226                 0.412051
  194                  0.40662                    0.00545648                 0.412077
  195                 0.372434                     0.0400423                 0.412476
  196                 0.312153                      0.101023                 0.413176
  197                 0.236714                      0.177336                  0.41405
  198                 0.159766                      0.255172                 0.414938
  199                0.0952036                      0.320478                 0.415682
  200                0.0546479                      0.361498                 0.416146
  201                0.0453542                      0.370893                 0.416247
  202                0.0689077                      0.347061                 0.415968
  203                  0.12095                      0.294411                 0.415361
  204                 0.191978                      0.222557                 0.414535
  205                 0.269078                      0.144563                  0.41364
  206                 0.338262                     0.0745775                  0.41284
  207                 0.387006                     0.0252715                 0.412277
  208                 0.406504                    0.00555049                 0.412054
  209                 0.393256                     0.0189539                  0.41221
  210                 0.349687                     0.0630287                 0.412716
  211                 0.283691                      0.129788                 0.413479
  212                 0.207192                       0.20717                 0.414361
  213                 0.133976                      0.281227                 0.415203
  214                0.0771938                      0.338658                 0.415851
  215                0.0469866                      0.369204                 0.416191
  216                0.0486579                      0.367502                  0.41616
  217                0.0817285                      0.334037                 0.415766
  218                 0.140038                      0.275043                 0.415081
  219                 0.212872                      0.201357                 0.414229
  220                  0.28691                      0.126455                 0.413365
  221                 0.348642                     0.0640031                 0.412645
  222                 0.386808                     0.0253917                 0.412199
  223                 0.394431                     0.0176766                 0.412108
  224                 0.370073                     0.0423133                 0.412387
  225                 0.318082                     0.0949026                 0.412985
  226                 0.247799                      0.165994                 0.413793
  227                 0.171864                      0.242802                 0.414667
